#Frame 	 Voronoi density(m^(-2))		Voronoi velocity(m/s)
29	1.021	0.034
30	1.054	0.043
31	1.058	0.056
32	1.064	0.067
33	1.071	0.079
34	1.076	0.065
35	1.081	0.083
36	1.090	0.108
37	1.093	0.135
38	1.101	0.174
39	1.111	0.224
40	1.129	0.287
41	1.150	0.363
42	1.180	0.448
43	1.219	0.556
44	1.266	0.683
45	1.325	0.831
46	1.376	0.960
47	1.413	1.077
48	1.439	1.177
49	1.480	1.247
50	1.542	1.299
51	1.599	1.337
52	1.663	1.361
53	1.732	1.367
54	1.808	1.366
55	1.894	1.363
56	1.975	1.359
57	2.050	1.356
58	2.111	1.350
59	2.151	1.343
60	2.175	1.330
61	2.186	1.312
62	2.196	1.301
63	2.216	1.287
64	2.212	1.264
65	2.214	1.249
66	2.210	1.235
67	2.193	1.222
68	2.167	1.223
69	2.156	1.221
70	2.168	1.212
71	2.197	1.201
72	2.248	1.185
73	2.307	1.173
74	2.359	1.165
75	2.398	1.159
76	2.424	1.158
77	2.442	1.157
78	2.457	1.155
79	2.469	1.154
80	2.482	1.150
81	2.506	1.140
82	2.538	1.127
83	2.569	1.114
84	2.592	1.101
85	2.595	1.101
86	2.618	1.100
87	2.657	1.094
88	2.605	1.084
89	2.645	1.072
90	2.694	1.059
91	2.751	1.046
92	2.819	1.031
93	2.905	1.017
94	2.993	1.003
95	3.069	0.990
96	3.130	0.979
97	3.132	0.974
98	3.148	0.974
99	3.164	0.978
100	3.187	0.983
101	3.206	0.988
102	3.213	0.992
103	3.208	0.994
104	3.209	0.992
105	3.205	0.985
106	3.191	0.975
107	3.182	0.961
108	3.174	0.941
109	3.159	0.917
110	3.138	0.899
111	3.095	0.894
112	3.057	0.895
113	3.045	0.899
114	3.053	0.907
115	3.078	0.917
116	3.098	0.922
117	3.102	0.925
118	3.108	0.924
119	3.130	0.918
120	3.158	0.909
121	3.184	0.900
122	3.206	0.890
123	3.163	0.879
124	3.121	0.876
125	3.084	0.871
126	3.045	0.870
127	3.006	0.871
128	2.983	0.878
129	2.966	0.883
130	2.954	0.889
131	2.944	0.895
132	2.931	0.901
133	2.923	0.903
134	2.906	0.903
135	2.898	0.895
136	2.887	0.881
137	2.880	0.869
138	2.878	0.859
139	2.898	0.859
140	2.936	0.858
141	2.973	0.861
142	3.002	0.869
143	2.971	0.882
144	2.933	0.897
145	2.919	0.906
146	2.922	0.908
147	2.932	0.903
148	2.955	0.896
149	2.985	0.888
150	2.989	0.881
151	2.983	0.875
152	2.991	0.872
153	2.999	0.870
154	3.011	0.870
155	3.030	0.871
156	3.060	0.874
157	3.085	0.881
158	3.114	0.889
159	3.138	0.893
160	3.171	0.896
161	3.215	0.896
162	3.274	0.899
163	3.347	0.902
164	3.430	0.901
165	3.512	0.897
166	3.580	0.890
167	3.655	0.883
168	3.705	0.877
169	3.733	0.875
170	3.742	0.873
171	3.725	0.872
172	3.729	0.869
173	3.739	0.867
174	3.775	0.865
175	3.830	0.867
176	3.904	0.865
177	3.982	0.861
178	4.047	0.856
179	4.090	0.846
180	4.136	0.836
181	4.169	0.827
182	4.173	0.818
183	4.158	0.810
184	4.132	0.805
185	4.099	0.797
186	4.056	0.787
187	3.996	0.779
188	3.927	0.774
189	3.864	0.775
190	3.811	0.775
191	3.771	0.779
192	3.762	0.787
193	3.752	0.802
194	3.707	0.817
195	3.652	0.829
196	3.611	0.838
197	3.583	0.835
198	3.560	0.826
199	3.536	0.818
200	3.466	0.810
201	3.416	0.800
202	3.388	0.795
203	3.380	0.792
204	3.369	0.796
205	3.355	0.804
206	3.350	0.810
207	3.331	0.821
208	3.300	0.825
209	3.277	0.825
210	3.259	0.823
211	3.245	0.817
212	3.248	0.806
213	3.265	0.794
214	3.289	0.785
215	3.324	0.778
216	3.359	0.778
217	3.391	0.782
218	3.412	0.791
219	3.422	0.797
220	3.416	0.801
221	3.404	0.803
222	3.405	0.806
223	3.416	0.810
224	3.443	0.809
225	3.483	0.807
226	3.482	0.803
227	3.498	0.798
228	3.530	0.791
229	3.569	0.779
230	3.595	0.763
231	3.607	0.745
232	3.597	0.730
233	3.545	0.723
234	3.503	0.719
235	3.473	0.720
236	3.451	0.722
237	3.441	0.723
238	3.435	0.725
239	3.439	0.728
240	3.444	0.730
241	3.447	0.729
242	3.449	0.728
243	3.451	0.726
244	3.435	0.724
245	3.419	0.722
246	3.409	0.720
247	3.403	0.718
248	3.412	0.709
249	3.431	0.698
250	3.457	0.689
251	3.406	0.684
252	3.384	0.681
253	3.369	0.680
254	3.352	0.683
255	3.341	0.682
256	3.318	0.687
257	3.301	0.702
258	3.289	0.720
259	3.280	0.738
260	3.268	0.749
261	3.275	0.756
262	3.293	0.752
263	3.321	0.744
264	3.358	0.736
265	3.394	0.733
266	3.428	0.729
267	3.464	0.724
268	3.495	0.721
269	3.512	0.720
270	3.509	0.721
271	3.466	0.719
272	3.424	0.719
273	3.390	0.716
274	3.379	0.713
275	3.384	0.711
276	3.391	0.712
277	3.400	0.717
278	3.422	0.724
279	3.455	0.732
280	3.422	0.738
281	3.416	0.743
282	3.390	0.744
283	3.371	0.739
284	3.355	0.731
285	3.333	0.727
286	3.312	0.724
287	3.298	0.721
288	3.293	0.717
289	3.299	0.712
290	3.309	0.712
291	3.326	0.715
292	3.339	0.721
293	3.363	0.726
294	3.392	0.726
295	3.420	0.720
296	3.453	0.711
297	3.497	0.702
298	3.536	0.692
299	3.548	0.684
300	3.534	0.681
301	3.536	0.678
302	3.553	0.674
303	3.587	0.675
304	3.625	0.677
305	3.657	0.684
306	3.695	0.692
307	3.749	0.701
308	3.806	0.710
309	3.864	0.718
310	3.922	0.724
311	3.976	0.726
312	4.006	0.726
313	4.022	0.722
314	4.029	0.724
315	4.034	0.724
316	4.035	0.722
317	4.043	0.727
318	4.039	0.739
319	4.033	0.750
320	4.020	0.754
321	4.012	0.755
322	3.982	0.749
323	3.946	0.743
324	3.888	0.735
325	3.828	0.730
326	3.785	0.723
327	3.758	0.715
328	3.737	0.707
329	3.719	0.702
330	3.703	0.702
331	3.695	0.701
332	3.702	0.702
333	3.706	0.706
334	3.718	0.709
335	3.727	0.714
336	3.727	0.716
337	3.688	0.719
338	3.653	0.720
339	3.627	0.719
340	3.596	0.714
341	3.575	0.707
342	3.562	0.700
343	3.559	0.698
344	3.562	0.698
345	3.569	0.700
346	3.545	0.700
347	3.529	0.699
348	3.518	0.696
349	3.511	0.695
350	3.486	0.695
351	3.478	0.701
352	3.460	0.707
353	3.434	0.713
354	3.400	0.720
355	3.360	0.725
356	3.329	0.730
357	3.312	0.730
358	3.307	0.732
359	3.321	0.733
360	3.354	0.733
361	3.393	0.733
362	3.439	0.731
363	3.474	0.730
364	3.477	0.729
365	3.478	0.732
366	3.468	0.738
367	3.446	0.743
368	3.392	0.750
369	3.356	0.755
370	3.333	0.759
371	3.328	0.758
372	3.342	0.754
373	3.362	0.751
374	3.399	0.750
375	3.449	0.748
376	3.515	0.748
377	3.569	0.751
378	3.605	0.750
379	3.621	0.747
380	3.628	0.736
381	3.618	0.727
382	3.595	0.721
383	3.571	0.715
384	3.551	0.712
385	3.548	0.709
386	3.545	0.711
387	3.540	0.709
388	3.530	0.709
389	3.521	0.709
390	3.518	0.711
391	3.507	0.715
392	3.498	0.720
393	3.486	0.725
394	3.470	0.732
395	3.453	0.733
396	3.434	0.732
397	3.395	0.729
398	3.352	0.722
399	3.331	0.716
400	3.326	0.714
401	3.331	0.713
402	3.342	0.714
403	3.361	0.713
404	3.384	0.715
405	3.420	0.720
406	3.465	0.722
407	3.505	0.722
408	3.532	0.724
409	3.551	0.728
410	3.506	0.726
411	3.501	0.725
412	3.500	0.729
413	3.504	0.737
414	3.523	0.741
415	3.559	0.744
416	3.605	0.743
417	3.657	0.745
418	3.719	0.747
419	3.784	0.744
420	3.823	0.740
421	3.797	0.737
422	3.784	0.736
423	3.779	0.733
424	3.788	0.730
425	3.812	0.724
426	3.841	0.722
427	3.869	0.719
428	3.898	0.716
429	3.922	0.715
430	3.930	0.715
431	3.916	0.717
432	3.894	0.717
433	3.873	0.721
434	3.858	0.723
435	3.838	0.721
436	3.770	0.718
437	3.719	0.711
438	3.680	0.706
439	3.666	0.710
440	3.670	0.717
441	3.686	0.724
442	3.716	0.731
443	3.774	0.736
444	3.842	0.739
445	3.890	0.738
446	3.931	0.735
447	3.958	0.729
448	3.946	0.726
449	3.901	0.717
450	3.843	0.710
451	3.792	0.700
452	3.724	0.692
453	3.660	0.689
454	3.617	0.689
455	3.614	0.693
456	3.634	0.698
457	3.661	0.706
458	3.696	0.711
459	3.733	0.713
460	3.770	0.711
461	3.814	0.709
462	3.845	0.707
463	3.850	0.705
464	3.834	0.701
465	3.815	0.696
466	3.793	0.690
467	3.770	0.681
468	3.757	0.672
469	3.749	0.663
470	3.740	0.660
471	3.721	0.659
472	3.696	0.666
473	3.671	0.675
474	3.652	0.687
475	3.647	0.697
476	3.650	0.706
477	3.652	0.712
478	3.649	0.718
479	3.643	0.722
480	3.616	0.722
481	3.593	0.719
482	3.573	0.710
483	3.530	0.704
484	3.483	0.700
485	3.424	0.700
486	3.375	0.703
487	3.366	0.709
488	3.398	0.716
489	3.430	0.735
490	3.461	0.753
491	3.508	0.768
492	3.553	0.778
493	3.600	0.782
494	3.647	0.781
495	3.682	0.776
496	3.704	0.769
497	3.726	0.761
498	3.741	0.752
499	3.747	0.746
500	3.745	0.740
501	3.733	0.736
502	3.718	0.730
503	3.671	0.721
504	3.605	0.716
505	3.535	0.709
506	3.478	0.701
507	3.440	0.693
508	3.421	0.687
509	3.409	0.681
510	3.398	0.676
511	3.396	0.671
512	3.392	0.665
513	3.383	0.660
514	3.345	0.660
515	3.322	0.662
516	3.308	0.663
517	3.309	0.663
518	3.322	0.667
519	3.314	0.673
520	3.292	0.679
521	3.271	0.688
522	3.265	0.691
523	3.260	0.690
524	3.253	0.693
525	3.252	0.692
526	3.263	0.693
527	3.291	0.690
528	3.323	0.685
529	3.374	0.679
530	3.439	0.675
531	3.495	0.674
532	3.555	0.678
533	3.616	0.685
534	3.687	0.688
535	3.763	0.687
536	3.833	0.688
537	3.900	0.689
538	3.966	0.689
539	4.032	0.689
540	4.095	0.686
541	4.136	0.685
542	4.145	0.687
543	4.131	0.688
544	4.112	0.691
545	4.092	0.692
546	4.071	0.689
547	4.043	0.686
548	4.019	0.685
549	4.006	0.686
550	4.021	0.692
551	4.053	0.697
552	4.072	0.706
553	3.963	0.719
554	3.935	0.729
555	3.890	0.738
556	3.838	0.740
557	3.778	0.741
558	3.729	0.736
559	3.682	0.730
560	3.654	0.727
561	3.639	0.726
562	3.639	0.723
563	3.648	0.715
564	3.666	0.710
565	3.683	0.702
566	3.693	0.696
567	3.708	0.690
568	3.721	0.689
569	3.724	0.688
570	3.724	0.685
571	3.715	0.685
572	3.714	0.685
573	3.720	0.687
574	3.741	0.693
575	3.779	0.702
576	3.824	0.711
577	3.811	0.719
578	3.837	0.728
579	3.887	0.733
580	3.950	0.734
581	4.013	0.736
582	4.067	0.736
583	4.113	0.738
584	4.135	0.739
585	4.146	0.738
586	4.144	0.736
587	4.140	0.732
588	4.134	0.726
589	4.116	0.721
590	4.099	0.717
591	4.076	0.712
592	4.047	0.710
593	3.992	0.711
594	3.930	0.713
595	3.876	0.714
596	3.833	0.717
597	3.809	0.716
598	3.798	0.717
599	3.796	0.720
600	3.794	0.725
601	3.789	0.726
602	3.781	0.726
603	3.772	0.726
604	3.762	0.727
605	3.742	0.727
606	3.713	0.726
607	3.657	0.721
608	3.577	0.717
609	3.502	0.711
610	3.431	0.709
611	3.368	0.707
612	3.316	0.706
613	3.278	0.708
614	3.256	0.707
615	3.252	0.710
616	3.257	0.714
617	3.274	0.716
618	3.292	0.715
619	3.309	0.714
620	3.316	0.707
621	3.317	0.701
622	3.301	0.695
623	3.289	0.695
624	3.278	0.697
625	3.275	0.697
626	3.286	0.695
627	3.304	0.693
628	3.332	0.690
629	3.368	0.686
630	3.408	0.685
631	3.436	0.681
632	3.451	0.679
633	3.461	0.674
634	3.473	0.672
635	3.460	0.671
636	3.448	0.669
637	3.433	0.672
638	3.411	0.679
639	3.376	0.687
640	3.337	0.693
641	3.296	0.698
642	3.264	0.703
643	3.241	0.707
644	3.235	0.711
645	3.234	0.712
646	3.239	0.713
647	3.242	0.715
648	3.246	0.713
649	3.235	0.707
650	3.195	0.704
651	3.171	0.701
652	3.147	0.698
653	3.146	0.698
654	3.112	0.700
655	3.083	0.706
656	3.068	0.709
657	3.070	0.712
658	3.088	0.717
659	3.119	0.724
660	3.155	0.727
661	3.190	0.730
662	3.224	0.736
663	3.260	0.743
664	3.295	0.748
665	3.329	0.749
666	3.354	0.751
667	3.365	0.747
668	3.371	0.742
669	3.382	0.739
670	3.403	0.740
671	3.426	0.741
672	3.447	0.740
673	3.454	0.738
674	3.454	0.737
675	3.455	0.739
676	3.445	0.743
677	3.444	0.746
678	3.438	0.747
679	3.405	0.751
680	3.362	0.753
681	3.330	0.756
682	3.305	0.758
683	3.282	0.759
684	3.258	0.760
685	3.239	0.760
686	3.239	0.762
687	3.255	0.763
688	3.279	0.763
689	3.301	0.764
690	3.319	0.767
691	3.336	0.769
692	3.359	0.772
693	3.363	0.778
694	3.362	0.787
695	3.373	0.797
696	3.363	0.803
697	3.367	0.806
698	3.365	0.811
699	3.355	0.814
700	3.353	0.818
701	3.358	0.823
702	3.379	0.824
703	3.420	0.819
704	3.470	0.812
705	3.524	0.807
706	3.576	0.801
707	3.632	0.794
708	3.623	0.786
709	3.615	0.778
710	3.607	0.773
711	3.590	0.771
712	3.562	0.769
713	3.533	0.765
714	3.511	0.755
715	3.485	0.740
716	3.457	0.719
717	3.437	0.704
718	3.428	0.696
719	3.419	0.693
720	3.406	0.691
721	3.382	0.692
722	3.353	0.696
723	3.272	0.701
724	3.204	0.708
725	3.158	0.716
726	3.125	0.725
727	3.104	0.728
728	3.089	0.724
729	3.072	0.719
730	3.054	0.713
731	3.046	0.707
732	3.053	0.700
733	3.070	0.695
734	3.020	0.690
735	3.009	0.689
736	3.001	0.688
737	2.993	0.690
738	2.977	0.695
739	2.952	0.699
740	2.932	0.701
741	2.924	0.704
742	2.928	0.703
743	2.932	0.702
744	2.939	0.700
745	2.951	0.699
746	2.960	0.697
747	2.960	0.686
748	2.955	0.683
749	2.958	0.680
750	2.964	0.682
751	2.975	0.680
752	2.644	0.660
753	2.685	0.660
754	2.725	0.667
755	2.759	0.673
756	2.791	0.679
757	2.807	0.688
758	2.819	0.694
759	2.829	0.701
760	2.835	0.708
761	2.846	0.714
762	2.855	0.721
763	2.869	0.728
764	2.885	0.732
765	2.910	0.735
766	2.952	0.734
767	3.007	0.728
768	3.068	0.726
769	3.132	0.727
770	3.195	0.728
771	3.253	0.727
772	3.288	0.730
773	3.286	0.733
774	3.277	0.743
775	3.270	0.757
776	3.270	0.774
777	3.283	0.790
778	3.308	0.799
779	3.348	0.801
780	3.398	0.797
781	3.443	0.788
782	3.475	0.774
783	3.490	0.762
784	3.496	0.746
785	3.495	0.730
786	3.486	0.715
787	3.470	0.703
788	3.444	0.699
789	3.404	0.701
790	3.364	0.707
791	3.330	0.716
792	3.304	0.723
793	3.292	0.730
794	3.178	0.738
795	3.127	0.745
796	3.088	0.750
797	3.054	0.751
798	3.021	0.749
799	3.003	0.748
800	2.999	0.748
801	3.013	0.746
802	3.035	0.750
803	3.060	0.754
804	3.085	0.753
805	3.102	0.750
806	3.109	0.740
807	3.112	0.728
808	3.127	0.715
809	3.148	0.702
810	3.197	0.693
811	3.190	0.692
812	3.202	0.698
813	3.232	0.705
814	3.150	0.710
815	3.176	0.713
816	3.162	0.715
817	3.127	0.716
818	3.088	0.718
819	3.054	0.723
820	3.023	0.726
821	3.013	0.728
822	3.022	0.726
823	3.036	0.721
824	3.049	0.716
825	3.068	0.713
826	3.080	0.711
827	3.097	0.710
828	3.122	0.712
829	3.147	0.720
830	3.113	0.725
831	3.088	0.728
832	3.071	0.733
833	3.082	0.741
834	3.106	0.750
835	3.146	0.758
836	3.193	0.760
837	3.249	0.758
838	3.303	0.752
839	3.350	0.739
840	3.391	0.728
841	3.427	0.719
842	3.463	0.713
843	3.489	0.707
844	3.097	0.699
845	3.085	0.697
846	3.077	0.695
847	3.078	0.690
848	3.087	0.682
849	3.111	0.674
850	3.138	0.667
851	3.164	0.662
852	3.182	0.658
853	3.191	0.659
854	3.204	0.662
855	3.219	0.665
856	3.239	0.672
857	3.269	0.682
858	3.300	0.694
859	3.321	0.706
860	3.322	0.721
861	3.318	0.740
862	3.302	0.759
863	3.258	0.775
864	3.205	0.785
865	3.148	0.789
866	3.085	0.787
867	3.028	0.780
868	2.978	0.771
869	2.936	0.755
870	2.778	0.743
871	2.731	0.734
872	2.697	0.730
873	2.674	0.727
874	2.662	0.726
875	2.677	0.731
876	2.657	0.741
877	2.632	0.750
878	2.604	0.754
879	2.584	0.759
880	2.565	0.760
881	2.533	0.759
882	2.491	0.757
883	2.446	0.755
884	2.411	0.752
885	2.379	0.751
886	2.348	0.750
887	2.311	0.755
888	2.273	0.763
889	2.232	0.768
890	2.185	0.774
891	2.144	0.781
892	2.110	0.785
893	2.086	0.785
894	2.066	0.780
895	2.053	0.772
896	2.033	0.762
897	2.012	0.751
898	1.981	0.741
899	1.950	0.739
900	1.927	0.737
901	1.918	0.738
902	1.924	0.741
903	1.943	0.750
904	1.973	0.761
905	2.015	0.771
906	2.059	0.779
907	2.099	0.788
908	2.135	0.797
909	2.161	0.803
910	2.184	0.808
911	2.203	0.810
912	2.221	0.810
913	2.238	0.804
914	2.258	0.796
915	2.235	0.786
916	2.242	0.779
917	2.250	0.778
918	2.252	0.781
919	2.251	0.786
920	2.247	0.784
921	2.196	0.779
922	2.152	0.772
923	2.117	0.762
924	2.097	0.750
925	2.084	0.738
926	2.067	0.726
927	2.056	0.715
928	2.046	0.708
929	2.031	0.707
930	2.022	0.709
931	2.022	0.711
932	2.029	0.712
933	2.036	0.707
934	2.048	0.699
935	2.056	0.691
936	2.064	0.684
937	2.066	0.684
938	2.073	0.685
939	2.082	0.680
940	2.105	0.679
941	2.112	0.684
942	2.179	0.695
943	2.183	0.711
944	2.194	0.729
945	2.206	0.745
946	2.209	0.756
947	2.205	0.764
948	2.189	0.770
949	2.165	0.773
950	2.135	0.775
951	2.099	0.774
952	2.068	0.770
953	2.042	0.767
954	2.022	0.762
955	2.014	0.756
956	2.017	0.753
957	2.021	0.756
958	2.025	0.764
959	2.030	0.775
960	2.040	0.784
961	2.073	0.790
962	2.076	0.793
963	2.078	0.794
964	2.071	0.790
965	2.055	0.788
966	2.035	0.788
967	2.012	0.790
968	1.982	0.791
969	1.935	0.790
970	1.888	0.788
971	1.845	0.784
972	1.805	0.781
973	1.768	0.780
974	1.740	0.779
975	1.712	0.777
976	1.687	0.772
977	1.668	0.766
978	1.652	0.762
979	1.633	0.759
980	1.607	0.756
981	1.577	0.755
982	1.545	0.753
983	1.517	0.749
984	1.493	0.746
985	1.475	0.745
986	1.465	0.751
987	1.460	0.758
988	1.458	0.764
989	1.456	0.774
990	1.459	0.779
991	1.452	0.776
992	1.430	0.768
993	1.399	0.758
994	1.354	0.750
995	1.307	0.747
996	1.258	0.743
997	1.208	0.745
998	1.160	0.750
999	1.114	0.754
1000	1.069	0.760
1001	1.025	0.769
1002	0.984	0.778
1003	0.950	0.785
1004	0.916	0.784
1005	0.885	0.782
1006	0.855	0.779
1007	0.826	0.775
1008	0.799	0.772
1009	0.771	0.777
1010	0.746	0.781
1011	0.723	0.780
1012	0.704	0.777
1013	0.688	0.773
1014	0.675	0.765
1015	0.660	0.750
1016	0.640	0.735
1017	0.615	0.718
1018	0.590	0.701
1019	0.567	0.686
1020	0.544	0.673
1021	0.516	0.661
1022	0.489	0.642
1023	0.460	0.622
1024	0.431	0.598
1025	0.396	0.565
1026	0.361	0.528
1027	0.329	0.494
1028	0.295	0.455
1029	0.260	0.416
1030	0.228	0.377
1031	0.197	0.341
1032	0.168	0.302
1033	0.140	0.260
1034	0.113	0.215
1035	0.087	0.169
1036	0.063	0.124
1037	0.041	0.084
1038	0.028	0.056
1039	0.016	0.033
1040	0.007	0.013
1041	0.000	0.000
1042	0.000	0.000
1043	0.000	0.000
1044	0.000	0.000
1045	0.000	0.000
1046	0.000	0.000
1047	0.000	0.000
1048	0.000	0.000
1049	0.000	0.000
1050	0.000	0.000
1051	0.000	0.000
1052	0.000	0.000
1053	0.000	0.000
1054	0.000	0.000
1055	0.000	0.000
1056	0.000	0.000
1057	0.000	0.000
1058	0.000	0.000
1059	0.000	0.000
1060	0.000	0.000
1061	0.000	0.000
1062	0.000	0.000
1063	0.000	0.000
1064	0.000	0.000
1065	0.000	0.000
1066	0.000	0.000
1067	0.000	0.000
1068	0.000	0.000
1069	0.000	0.000
1070	0.000	0.000
1071	0.000	0.000
1072	0.000	0.000
1073	0.000	0.000
1074	0.000	0.000
1075	0.000	0.000
1076	0.000	0.000
1077	0.000	0.000
1078	0.000	0.000
1079	0.000	0.000
1080	0.000	0.000
1081	0.000	0.000
1082	0.000	0.000
1083	0.000	0.000
1084	0.000	0.000
1085	0.000	0.000
1086	0.000	0.000
1087	0.000	0.000
1088	0.000	0.000
1089	0.000	0.000
1090	0.000	0.000
1091	0.000	0.000
1092	0.000	0.000
1093	0.000	0.000
1094	0.000	0.000
1095	0.000	0.000
1096	0.000	0.000
1097	0.000	0.000
1098	0.000	0.000
1099	0.000	0.000
1100	0.000	0.000
1101	0.000	0.000
